Frequency,Nominal,Min,Max
125000,2.5095418959904787e-8,2.451863012107769e-8,2.57012859060005e-8
128000,2.528472266984487e-8,2.4683551621750142e-8,2.5916585839495876e-8
130000,2.5413753697357582e-8,2.4795922431775254e-8,2.6063385160881425e-8
132000,2.554506390284018e-8,2.4910243938948675e-8,2.62128183467429e-8
135000,2.5746334126866664e-8,2.508540722096354e-8,2.6441947126481526e-8
138000,2.595281453496105e-8,2.5265020766419278e-8,2.6677107710226117e-8
140000,2.609338792788269e-8,2.538725433305317e-8,2.6837264910663e-8
142000,2.6236315267295536e-8,2.5511494384065088e-8,2.700015219104647e-8
145000,2.645515473594358e-8,2.5701642609333657e-8,2.7249646750098e-8
148000,2.6679381250023237e-8,2.5896373134314457e-8,2.7505400471829677e-8
150000,2.6831886200208726e-8,2.602875998462473e-8,2.767941594797287e-8
155000,2.7223845982676793e-8,2.6368803552495828e-8,2.8126910707478918e-8
160000,2.763130969054438e-8,2.6721979594539777e-8,2.8592483845624517e-8
165000,2.8054564732172095e-8,2.7088503568717868e-8,2.9076502369983994e-8
170000,2.849391008600908e-8,2.7468600051265522e-8,2.9579346898849874e-8
175000,2.894965597058045e-8,2.786250262605271e-8,3.010141090286546e-8
180000,2.942212340225422e-8,2.8270453714630507e-8,3.064309974357575e-8
185000,2.9911643625974115e-8,2.869270433945815e-8,3.120482948144533e-8
190000,3.0418557402462004e-8,2.9129513811991552e-8,3.178702542275285e-8
195000,3.094321413356327e-8,2.9581149336420718e-8,3.2390120371394274e-8
200000,3.1485970805425364e-8,3.004788551886868e-8,3.3014552548033564e-8
205000,3.204719072707445e-8,3.053000377080646e-8,3.3660763135262427e-8
210000,3.262724203969519e-8,3.1027791594298024e-8,3.432919340352561e-8
215000,3.32264959695444e-8,3.1541541735469015e-8,3.502028136860887e-8
220000,3.384532479496625e-8,3.207155119129698e-8,3.573445792757497e-8
225000,3.448409949546381e-8,3.261812005345801e-8,3.647214241630911e-8
230000,3.5143187048271345e-8,3.31815501715466e-8,3.723373752847632e-8
235000,3.582294733543276e-8,3.37621436165282e-8,3.8019623532928316e-8
240000,3.6523729622113367e-8,3.436020092381232e-8,3.883015172471694e-8
245000,3.7245868564870866e-8,3.4976019093874886e-8,3.966563704423006e-8
250000,3.798967970702799e-8,3.5609889326955525e-8,4.052634979999835e-8
255000,3.875545441730305e-8,3.626209446705206e-8,4.1412506433949606e-8
260000,3.9543454227679675e-8,3.693290612929863e-8,4.232425927392226e-8
270000,4.118698757217567e-8,3.833135966935972e-8,4.422477338751587e-8
275000,4.204283477193105e-8,3.905945780716887e-8,4.521341153018817e-8
280000,4.2921518226103465e-8,3.980706659147822e-8,4.622737152898925e-8
285000,4.3823041484808464e-8,4.0574345427334545e-8,4.726629371853789e-8
290000,4.474732952558467e-8,4.136141709405494e-8,4.8329670300116006e-8
295000,4.5694217951126955e-8,4.2168361913063576e-8,4.941682792122239e-8
300000,4.666344143301794e-8,4.2995211404183886e-8,5.05269096227503e-8
305000,4.765462145086768e-8,4.3841941420487564e-8,5.165885641556477e-8
310000,4.866725340588309e-8,4.470846475978265e-8,5.2811388826206194e-8
315000,4.9700693223109875e-8,4.5594623260937844e-8,5.398298883785206e-8
320000,5.075414359764865e-8,4.650017940577175e-8,5.517188274558705e-8
330000,5.291703730418542e-8,4.836808422452478e-8,5.759308753917875e-8
340000,5.514596806567749e-8,5.0308345896283794e-8,6.00551689047667e-8
350000,5.742766801189099e-8,5.2315260173995787e-8,6.253350821648868e-8
360000,5.974523892810455e-8,5.438093810608072e-8,6.505908514396859e-8
370000,6.207796991183452e-8,5.649500976488148e-8,6.756730161512982e-8
390000,6.668754614454447e-8,6.081305336112769e-8,7.234620819810349e-8
400000,6.890582833841021e-8,6.298214304506036e-8,7.453835235152762e-8
410000,7.102393836084625e-8,6.512999903510873e-8,7.654761798293481e-8
420000,7.300940901630843e-8,6.723261297176581e-8,7.833990918930955e-8
432000,7.517357385629206e-8,6.957073402026485e-8,8.01658532581625e-8
445000,7.719865144473988e-8,7.185878856910163e-8,8.171062300192399e-8
458000,7.884869692780424e-8,7.38890791239143e-8,8.285540978076368e-8
475000,8.040289383122354e-8,7.547730141943605e-8,8.445385433401288e-8
488000,8.113065100678001e-8,7.520993239981506e-8,8.558623121214954e-8
500000,8.146866609785305e-8,7.4705636166555e-8,8.695873763809394e-8
515000,8.148776451277196e-8,7.380124922341709e-8,8.820684454217985e-8
530000,8.112752219720151e-8,7.26751644583034e-8,8.89564208382067e-8
550000,8.019395034107383e-8,7.096315143609334e-8,8.926053555446768e-8
565000,7.925118095471044e-8,6.960233609931486e-8,8.904630466629002e-8
580000,7.817230109517696e-8,6.822786003468403e-8,8.852547227481199e-8
600000,7.660890983842261e-8,6.642910074887534e-8,8.745877026196838e-8
615000,7.539030093779652e-8,6.513192357007914e-8,8.644565685085426e-8
630000,7.415946802625858e-8,6.389192242934023e-8,8.529372738290284e-8
645000,7.293071070758133e-8,6.271370136209551e-8,8.403092264695392e-8
660000,7.171079593778988e-8,6.159721851989002e-8,8.267578741261478e-8
675000,7.050064605090884e-8,6.053899931428322e-8,8.123920818338032e-8
688000,6.945719424023599e-8,5.966444275958378e-8,7.993240593930016e-8
700000,6.849475706484314e-8,5.888775648635014e-8,7.870906814829181e-8
715000,6.728630014984771e-8,5.7951217050520976e-8,7.718633804530345e-8
732000,6.589880655410756e-8,5.692466897729431e-8,7.536399352046223e-8
750000,6.439478065395414e-8,5.586267757947646e-8,7.332120191818692e-8
765000,6.310381469649216e-8,5.498511486270073e-8,7.153076980816862e-8
780000,6.177145840712897e-8,5.4104070074724137e-8,6.966374387703294e-8
800000,5.99229699185342e-8,5.2908703204992126e-8,6.706646470510083e-8
820000,5.798881908267818e-8,5.1673274458598074e-8,6.461456750966719e-8
840000,5.59730218281319e-8,4.9883767195547926e-8,6.232302868365051e-8
860000,5.388731059737501e-8,4.763054956174142e-8,5.999844166482321e-8
880000,5.174973550454411e-8,4.5386157193104534e-8,5.8084422343800265e-8
900000,4.9582618825390235e-8,4.317714834048031e-8,5.6097399853741595e-8
920000,4.7410250547458165e-8,4.102677531071425e-8,5.405128249441728e-8
940000,4.52567067874328e-8,3.895387584059842e-8,5.19643833113537e-8
960000,4.3144078998762016e-8,3.6972481787299747e-8,4.985765604422094e-8
980000,4.109126343779741e-8,3.509197919426696e-8,4.7752873743674295e-8
1000000,3.911332608169464e-8,3.3317623534039017e-8,4.567100262960283e-8
1020000,3.722136138138003e-8,3.165123309648125e-8,4.363094167876722e-8
1040000,3.542271463595855e-8,3.0091926482861844e-8,4.164870040770957e-8
1060000,3.372143048850242e-8,2.8636817262096166e-8,3.973700142306866e-8
1080000,3.2118809103522044e-8,2.7281618942345574e-8,3.790523676667142e-8
1100000,3.0613982062027064e-8,2.6021142525356093e-8,3.615968091621153e-8
1120000,2.9204451161659195e-8,2.484968738089318e-8,3.4522394920540746e-8
1150000,2.7260616286301542e-8,2.3246470398697428e-8,3.224134653727986e-8
1180000,2.5507538155614753e-8,2.181041370796128e-8,3.0150358407201326e-8
1200000,2.443643175550905e-8,2.0936541366475227e-8,2.8858912674109102e-8
1220000,2.343742831330062e-8,2.0123330164794168e-8,2.76460585739873e-8
1250000,2.206312805693811e-8,1.9006665130696656e-8,2.5966179790530046e-8
1280000,2.0823533809396708e-8,1.800057599070134e-8,2.4441620127621256e-8
1300000,2.0064530326404133e-8,1.7384661551439804e-8,2.3504678821869475e-8
1320000,1.9354636995163757e-8,1.680844076433416e-8,2.262652291368495e-8
1350000,1.837365638631949e-8,1.6011571807255787e-8,2.1410911544658868e-8
1380000,1.7483082849558354e-8,1.5287139943308956e-8,2.030610287668084e-8
1400000,1.6934468738018042e-8,1.484021548088596e-8,1.962534777074077e-8
1420000,1.6418711605386806e-8,1.4419492967296304e-8,1.8985489376211038e-8
1450000,1.5701259153492104e-8,1.3833164088735709e-8,1.809597446226164e-8
1480000,1.5044559549202414e-8,1.3295199697410056e-8,1.728277564201658e-8
1500000,1.4637195015753053e-8,1.2960782945575335e-8,1.677900042192227e-8
1550000,1.3712731286683575e-8,1.2199561204039716e-8,1.5638275806105903e-8
1600000,1.290417017034309e-8,1.1530765684076335e-8,1.4644249691362283e-8
1650000,1.2192453362035402e-8,1.093938537649298e-8,1.3772858554585339e-8
1700000,1.1562187819951767e-8,1.0413314837518692e-8,1.3004511174163895e-8
1750000,1.100087538620173e-8,9.942725810901776e-9,1.2323224055727466e-8
1800000,1.049830949229793e-8,9.519584047321628e-9,1.1715911109708078e-8
1850000,1.0046104498695417e-8,9.137276993302158e-9,1.1171811253469904e-8
1900000,9.637328577742354e-9,8.790325810027192e-9,1.0682031801882433e-8
1950000,9.266216770075472e-9,8.474161530065407e-9,1.0239185898517527e-8
2000000,8.927945924301145e-9,8.18495010550189e-9,9.83710495646148e-9
2050000,8.618457401871943e-9,7.919454864970735e-9,9.470610355602364e-9
2100000,8.334316723092491e-9,7.674927727567049e-9,9.13533173957903e-9
2150000,8.072601876352451e-9,7.449022638408219e-9,8.827561910308625e-9
2200000,7.830813958576584e-9,7.239726271241264e-9,8.544140486550378e-9
2250000,7.606805293829556e-9,7.045302224920133e-9,8.282360217900083e-9
2300000,7.398721298935924e-9,6.864245825931638e-9,8.039891197246898e-9
2350000,7.204953216434963e-9,6.69524731506466e-9,7.814719265137145e-9
2400000,7.024099482667913e-9,6.537161699369266e-9,7.60509571249952e-9
2450000,6.854933992640727e-9,6.388983932395224e-9,7.409496016604462e-9
2500000,6.69637990136363e-9,6.249828377006249e-9,7.226585831098473e-9
2550000,6.547487891986383e-9,6.118911728460308e-9,7.055192827404662e-9
2600000,6.4074180654385155e-9,5.995538747661594e-9,6.894283277138792e-9
2700000,6.150843907551868e-9,5.769013202762293e-9,6.600358423276296e-9
2750000,6.033082070058838e-9,5.664811802896954e-9,6.465807836180781e-9
2800000,5.9216075221766095e-9,5.566040596195999e-9,6.338644637648473e-9
2850000,5.815942388404964e-9,5.472298093099501e-9,6.218289956658695e-9
2900000,5.715656034424365e-9,5.383221501807202e-9,6.104223698640716e-9
2950000,5.620359384659987e-9,5.298482168916501e-9,5.995977324024457e-9
3000000,5.5297000342887184e-9,5.217781647189017e-9,5.893127652789555e-9
3050000,5.443358030507785e-9,5.140848292865918e-9,5.795291531428933e-9
3100000,5.361042219646024e-9,5.067434311755176e-9,5.7021212274098085e-9
3150000,5.282487074351293e-9,4.99731318696524e-9,5.6133004394437876e-9
3200000,5.207449929463601e-9,4.930277432295735e-9,5.5285408307723565e-9
3300000,5.0670590998116425e-9,4.804715674455369e-9,5.370173881449704e-9
3400000,4.938301026796329e-9,4.6894007102221675e-9,5.225167272384442e-9
