Frequency,Nominal,Min,Max
220000,-100.79124059430463,-101.67281502361976,-99.97156709872665
225000,-101.08841625959981,-102.00121154874749,-100.23987339607288
230000,-101.38956992065592,-102.33451611366095,-100.51132212723572
235000,-101.69484881800517,-102.67291921423787,-100.7860235658972
240000,-102.00440502656372,-103.01661818173106,-101.06409122635907
245000,-102.31839567818045,-103.36581751306686,-101.34564200376256
250000,-102.6369831938,-103.72072921607537,-101.63079631992372
255000,-102.96033552563945,-104.08157317023579,-101.91967827501617
260000,-103.28862640977931,-104.4485775035099,-102.21241580533867
270000,-103.96074929026236,-105.20202343970489,-102.80998950861189
275000,-104.30496010522876,-105.58896616864251,-103.11510224469241
280000,-104.65486769420286,-105.9830724035006,-103.42462404425989
285000,-105.01067889386097,-106.38461776748878,-103.73870462062547
290000,-105.37260808111819,-106.79388875992824,-104.05749861116458
295000,-105.74087750944751,-107.21118325904611,-104.38116578445535
300000,-106.11571765850393,-107.63681104388213,-104.7098712554162
305000,-106.49736759728626,-108.07109433524694,-105.04378570865775
310000,-106.88607536101242,-108.51436835548985,-105.3830856302495
315000,-107.28209834181027,-108.96698190661704,-105.72795354808132
320000,-107.68570369324048,-109.42929796604012,-106.07857828097825
330000,-108.51678145252069,-110.3845640857541,-106.79788647888476
340000,-109.38165732512027,-111.38337767633254,-107.54265662172244
350000,-110.2828643161649,-112.42921709508678,-108.31465320904553
360000,-111.22313492712475,-113.52584922459673,-109.11576838698328
370000,-112.20541693060521,-114.67735056089143,-109.94803203802903
390000,-114.30897937608142,-117.16293466104362,-111.71487688529479
400000,-115.43737645410492,-118.50688994113615,-112.65430369669119
410000,-116.62204826119554,-119.92548389927481,-113.6345928298254
420000,-117.86725217268943,-121.42458107761432,-114.65862740218408
432000,-119.44783535386034,-123.33855511035041,-115.94957397645507
445000,-121.27573136987859,-125.56621347626604,-117.43088370717388
458000,-123.23511689398931,-127.96907008219382,-119.00600718960878
475000,-126.01637157558147,-131.40166146854995,-121.22165424752048
488000,-128.3272214402845,-134.26828668988458,-123.04698592986041
500000,-130.61460277045774,-137.1139759704827,-124.84215960581543
515000,-133.698280050917,-140.95485182907058,-127.24779241300536
530000,-137.04884952396668,-145.12148739209275,-129.84845105516703
550000,-141.9576238878247,-151.18302177071874,-133.6477425075423
565000,-145.9813456339954,-156.08638107941053,-136.76592246404329
580000,-150.29672173466605,-161.2537439705992,-140.12870804563522
600000,-156.47586755631653,-168.44729689453376,-145.00665883255357
615000,-161.38589273684903,-173.96515079431768,-148.9619278304315
630000,-166.4750734997721,-179.48502036887467,-153.1618295860706
645000,-171.675888754719,-184.91291264960944,-157.5855569458537
660000,-176.91073671808633,-190.16390243857427,-162.1998486129268
675000,-182.09868370016147,-195.16945680056233,-166.9590639077614
688000,-186.49737813383618,-199.27116160709434,-171.15768989406428
700000,-190.4372150507493,-202.8445689520561,-175.05708940071835
715000,-195.1559201712842,-207.01340185518458,-179.91091475352553
732000,-200.18147870757247,-211.33875001929724,-185.30924777886014
750000,-205.09557173970484,-215.47426368520962,-190.81831181568
765000,-208.86270655948843,-218.59465482120478,-195.19155206888024
780000,-212.33704395706366,-221.44306551511878,-199.33310632238448
800000,-216.53674231913146,-224.8592398259084,-204.463954286383
820000,-220.28073741545063,-227.88987530192585,-209.13554841735296
840000,-223.61652815177806,-230.58615735225422,-213.35814583636923
860000,-226.59188548008083,-232.99360077119582,-217.1584152553509
880000,-229.2517259812471,-235.15178090334368,-220.57181183842928
900000,-231.63663875879925,-237.09465821255017,-223.63706890082872
920000,-233.78242401883293,-238.8511632259237,-226.3926563942052
940000,-235.72019434608444,-240.44585705512608,-228.87475519919184
960000,-237.4767536476023,-241.89957321276916,-231.116271979728
980000,-239.07508562995812,-243.2299983114462,-233.1465083569601
1000000,-240.53485931328862,-244.45217731656936,-234.99120897992114
1020000,-241.8729049612883,-245.57894325468706,-236.67280786004343
1040000,-243.10364022076334,-246.62127778601695,-238.21076184133545
1060000,-244.2394406997315,-247.58861143310367,-239.6219067901755
1080000,-245.29095658969894,-248.4890725557553,-240.92080169555194
1100000,-246.2673803088962,-249.3296934947427,-242.12004378927256
1120000,-247.17667133113363,-250.11658126643783,-243.2305481764506
1150000,-248.42961373495584,-251.20762277785718,-244.75030972528128
1180000,-249.5665909871086,-252.20484431086604,-246.11842881060096
1200000,-250.26826251518514,-252.82384241298308,-246.95731500885242
1220000,-250.92971482352377,-253.40996222620967,-247.7442029047561
1250000,-251.85423867045694,-254.23358538097958,-248.83751586453315
1280000,-252.70673940559772,-254.99777012502832,-249.83872448495782
1300000,-253.23946065009451,-255.47769421217768,-250.46091423831763
1320000,-253.74636385774562,-255.93612127091748,-251.05043404231873
1350000,-254.46267900854576,-256.5869522543338,-251.87924292736997
1380000,-255.1313980921086,-257.19783418467523,-252.64840583960424
1400000,-255.55333337366878,-257.5849661884476,-253.13140686159434
1420000,-255.95774971184807,-257.9572840100693,-253.5926535094976
1450000,-256.53415464361126,-258.49012473458805,-254.24714644578887
1480000,-257.0775013289334,-258.9948228255576,-254.86092903039795
1500000,-257.4229541643548,-259.3169562387075,-255.2495426508103
1550000,-258.23387654878405,-260.07708722033914,-256.15675852536975
1600000,-258.9782921733126,-260.7799309099095,-256.98326985593735
1650000,-259.66544330856016,-261.433189757181,-257.74074864910295
1700000,-260.3029189498583,-262.04322759100535,-258.438706927594
1750000,-260.8970086432002,-262.61534899885055,-259.08497249865997
1800000,-261.45296955932565,-263.1540116954003,-259.68604519384377
1850000,-261.97523050617025,-263.6629898311382,-260.24736689433746
1900000,-262.4675495049698,-264.14550092734913,-260.77352855426875
1950000,-262.9331367580602,-264.6043055251438,-261.2684306169694
2000000,-263.3747515321592,-265.04178614073084,-261.7354085543335
2050000,-263.79477917413095,-265.4600103656701,-262.1773320245299
2100000,-264.19529284522037,-265.86078170314556,-262.5966838715662
2150000,-264.57810339265365,-266.2456808330053,-262.99562357549564
2200000,-264.94479993291174,-266.6160993443947,-263.37603860121703
2250000,-265.2967831032552,-266.97326749381926,-263.7395862502288
